# x1    P (MPa)
0.000000 0.000000
0.002676 0.000814
0.005351 0.001633
0.008027 0.002457
0.010702 0.003285
0.013378 0.004118
0.016054 0.004957
0.018729 0.005800
0.021405 0.006649
0.024080 0.007502
0.026756 0.008361
0.029431 0.009225
0.032107 0.010095
0.034783 0.010970
0.037458 0.011850
0.040134 0.012736
0.042809 0.013627
0.045485 0.014525
0.048161 0.015428
0.050836 0.016336
0.053512 0.017251
0.056187 0.018171
0.058863 0.019098
0.061538 0.020031
0.064214 0.020969
0.066890 0.021915
0.069565 0.022866
0.072241 0.023824
0.074916 0.024788
0.077592 0.025759
0.080268 0.026737
0.082943 0.027721
0.085619 0.028712
0.088294 0.029710
0.090970 0.030715
0.093645 0.031727
0.096321 0.032746
0.098997 0.033772
0.101672 0.034806
0.104348 0.035847
0.107023 0.036896
0.109699 0.037953
0.112375 0.039017
0.115050 0.040089
0.117726 0.041169
0.120401 0.042257
0.123077 0.043353
0.125753 0.044457
0.128428 0.045570
0.131104 0.046691
0.133779 0.047820
0.136455 0.048959
0.139130 0.050106
0.141806 0.051262
0.144482 0.052427
0.147157 0.053602
0.149833 0.054785
0.152508 0.055978
0.155184 0.057181
0.157860 0.058393
0.160535 0.059615
0.163211 0.060847
0.165886 0.062089
0.168562 0.063341
0.171237 0.064604
0.173913 0.065877
0.176589 0.067160
0.179264 0.068454
0.181940 0.069760
0.184615 0.071076
0.187291 0.072403
0.189967 0.073742
0.192642 0.075092
0.195318 0.076455
0.197993 0.077828
0.200669 0.079214
0.203344 0.080612
0.206020 0.082023
0.208696 0.083445
0.211371 0.084881
0.214047 0.086329
0.216722 0.087791
0.219398 0.089266
0.222074 0.090754
0.224749 0.092255
0.227425 0.093771
0.230100 0.095300
0.232776 0.096844
0.235452 0.098402
0.238127 0.099975
0.240803 0.101562
0.243478 0.103165
0.246154 0.104783
0.248829 0.106416
0.251505 0.108065
0.254181 0.109730
0.256856 0.111410
0.259532 0.113108
0.262207 0.114822
0.264883 0.116552
0.267559 0.118300
0.270234 0.120065
0.272910 0.121848
0.275585 0.123648
0.278261 0.125467
0.280936 0.127304
0.283612 0.129159
0.286288 0.131034
0.288963 0.132928
0.291639 0.134841
0.294314 0.136773
0.296990 0.138726
0.299666 0.140699
0.302341 0.142693
0.305017 0.144708
0.307692 0.146744
0.310368 0.148801
0.313043 0.150880
0.315719 0.152982
0.318395 0.155105
0.321070 0.157252
0.323746 0.159422
0.326421 0.161615
0.329097 0.163832
0.331773 0.166074
0.334448 0.168339
0.337124 0.170630
0.339799 0.172946
0.342475 0.175287
0.345151 0.177655
0.347826 0.180049
0.350502 0.182469
0.353177 0.184917
0.355853 0.187392
0.358528 0.189895
0.361204 0.192427
0.363880 0.194987
0.366555 0.197576
0.369231 0.200195
0.371906 0.202844
0.374582 0.205523
0.377258 0.208234
0.379933 0.210975
0.382609 0.213748
0.385284 0.216553
0.387960 0.219391
0.390635 0.222262
0.393311 0.225166
0.395987 0.228105
0.398662 0.231077
0.401338 0.234085
0.404013 0.237128
0.406689 0.240207
0.409365 0.243323
0.412040 0.246475
0.414716 0.249665
0.417391 0.252892
0.420067 0.256158
0.422742 0.259463
0.425418 0.262807
0.428094 0.266191
0.430769 0.269616
0.433445 0.273081
0.436120 0.276588
0.438796 0.280136
0.441472 0.283728
0.444147 0.287362
0.446823 0.291039
0.449498 0.294761
0.452174 0.298527
0.454849 0.302339
0.457525 0.306196
0.460201 0.310099
0.462876 0.314049
0.465552 0.318046
0.468227 0.322091
0.470903 0.326184
0.473579 0.330326
0.476254 0.334517
0.478930 0.338758
0.481605 0.343049
0.484281 0.347391
0.486957 0.351785
0.489632 0.356230
0.492308 0.360727
0.494983 0.365278
0.497659 0.369881
0.500334 0.374539
0.503010 0.379250
0.505686 0.384016
0.508361 0.388837
0.511037 0.393714
0.513712 0.398647
0.516388 0.403636
0.519064 0.408682
0.521739 0.413785
0.524415 0.418945
0.527090 0.424163
0.529766 0.429440
0.532441 0.434775
0.535117 0.440168
0.537793 0.445621
0.540468 0.451133
0.543144 0.456705
0.545819 0.462337
0.548495 0.468029
0.551171 0.473781
0.553846 0.479593
0.556522 0.485466
0.559197 0.491399
0.561873 0.497394
0.564548 0.503449
0.567224 0.509565
0.569900 0.515742
0.572575 0.521979
0.575251 0.528278
0.577926 0.534637
0.580602 0.541056
0.583278 0.547536
0.585953 0.554077
0.588629 0.560677
0.591304 0.567338
0.593980 0.574058
0.596656 0.580837
0.599331 0.587675
0.602007 0.594571
0.604682 0.601526
0.607358 0.608538
0.610033 0.615608
0.612709 0.622734
0.615385 0.629916
0.618060 0.637154
0.620736 0.644446
0.623411 0.651793
0.626087 0.659193
0.628763 0.666646
0.631438 0.674151
0.634114 0.681707
0.636789 0.689312
0.639465 0.696968
0.642140 0.704671
0.644816 0.712422
0.647492 0.720219
0.650167 0.728062
0.652843 0.735948
0.655518 0.743878
0.658194 0.751850
0.660870 0.759862
0.663545 0.767913
0.666221 0.776003
0.668896 0.784129
0.671572 0.792291
0.674247 0.800487
0.676923 0.808716
0.679599 0.816976
0.682274 0.825266
0.684950 0.833584
0.687625 0.841929
0.690301 0.850298
0.692977 0.858692
0.695652 0.867108
0.698328 0.875544
0.701003 0.883998
0.703679 0.892470
0.706355 0.900957
0.709030 0.909458
0.711706 0.917970
0.714381 0.926493
0.717057 0.935024
0.719732 0.943562
0.722408 0.952105
0.725084 0.960651
0.727759 0.969198
0.730435 0.977744
0.733110 0.986288
0.735786 0.994827
0.738462 1.003361
0.741137 1.011886
0.743813 1.020402
0.746488 1.028906
0.749164 1.037397
0.751839 1.045872
0.754515 1.054329
0.757191 1.062768
0.759866 1.071186
0.762542 1.079580
0.765217 1.087950
0.767893 1.096294
0.770569 1.104609
0.773244 1.112895
0.775920 1.121148
0.778595 1.129367
0.781271 1.137551
0.783946 1.145698
0.786622 1.153805
0.789298 1.161872
0.791973 1.169896
0.794649 1.177876
0.797324 1.185810
0.800000 1.193696
