# x1    P (MPa)
0.000000 0.000002
0.002676 0.001041
0.005351 0.002087
0.008027 0.003141
0.010702 0.004204
0.013378 0.005274
0.016054 0.006352
0.018729 0.007438
0.021405 0.008532
0.024080 0.009635
0.026756 0.010745
0.029431 0.011864
0.032107 0.012992
0.034783 0.014128
0.037458 0.015272
0.040134 0.016425
0.042809 0.017587
0.045485 0.018757
0.048161 0.019937
0.050836 0.021125
0.053512 0.022322
0.056187 0.023529
0.058863 0.024744
0.061538 0.025969
0.064214 0.027203
0.066890 0.028446
0.069565 0.029699
0.072241 0.030961
0.074916 0.032233
0.077592 0.033515
0.080268 0.034806
0.082943 0.036108
0.085619 0.037419
0.088294 0.038740
0.090970 0.040072
0.093645 0.041413
0.096321 0.042765
0.098997 0.044128
0.101672 0.045500
0.104348 0.046884
0.107023 0.048278
0.109699 0.049682
0.112375 0.051098
0.115050 0.052524
0.117726 0.053962
0.120401 0.055410
0.123077 0.056870
0.125753 0.058341
0.128428 0.059823
0.131104 0.061317
0.133779 0.062822
0.136455 0.064339
0.139130 0.065868
0.141806 0.067408
0.144482 0.068961
0.147157 0.070525
0.149833 0.072102
0.152508 0.073691
0.155184 0.075292
0.157860 0.076906
0.160535 0.078533
0.163211 0.080172
0.165886 0.081823
0.168562 0.083488
0.171237 0.085165
0.173913 0.086856
0.176589 0.088560
0.179264 0.090277
0.181940 0.092007
0.184615 0.093751
0.187291 0.095509
0.189967 0.097280
0.192642 0.099065
0.195318 0.100864
0.197993 0.102677
0.200669 0.104505
0.203344 0.106346
0.206020 0.108202
0.208696 0.110072
0.211371 0.111957
0.214047 0.113857
0.216722 0.115772
0.219398 0.117701
0.222074 0.119646
0.224749 0.121606
0.227425 0.123581
0.230100 0.125571
0.232776 0.127577
0.235452 0.129599
0.238127 0.131637
0.240803 0.133690
0.243478 0.135760
0.246154 0.137845
0.248829 0.139947
0.251505 0.142065
0.254181 0.144200
0.256856 0.146352
0.259532 0.148520
0.262207 0.150705
0.264883 0.152907
0.267559 0.155126
0.270234 0.157363
0.272910 0.159617
0.275585 0.161888
0.278261 0.164177
0.280936 0.166484
0.283612 0.168808
0.286288 0.171151
0.288963 0.173512
0.291639 0.175891
0.294314 0.178288
0.296990 0.180705
0.299666 0.183139
0.302341 0.185593
0.305017 0.188065
0.307692 0.190557
0.310368 0.193067
0.313043 0.195597
0.315719 0.198146
0.318395 0.200715
0.321070 0.203304
0.323746 0.205912
0.326421 0.208541
0.329097 0.211189
0.331773 0.213858
0.334448 0.216547
0.337124 0.219256
0.339799 0.221986
0.342475 0.224737
0.345151 0.227508
0.347826 0.230301
0.350502 0.233114
0.353177 0.235949
0.355853 0.238805
0.358528 0.241683
0.361204 0.244582
0.363880 0.247503
0.366555 0.250446
0.369231 0.253411
0.371906 0.256397
0.374582 0.259406
0.377258 0.262438
0.379933 0.265492
0.382609 0.268568
0.385284 0.271667
0.387960 0.274789
0.390635 0.277934
0.393311 0.281102
0.395987 0.284292
0.398662 0.287507
0.401338 0.290744
0.404013 0.294005
0.406689 0.297290
0.409365 0.300599
0.412040 0.303931
0.414716 0.307287
0.417391 0.310667
0.420067 0.314071
0.422742 0.317500
0.425418 0.320952
0.428094 0.324430
0.430769 0.327931
0.433445 0.331457
0.436120 0.335008
0.438796 0.338584
0.441472 0.342185
0.444147 0.345810
0.446823 0.349461
0.449498 0.353136
0.452174 0.356837
0.454849 0.360563
0.457525 0.364315
0.460201 0.368092
0.462876 0.371894
0.465552 0.375722
0.468227 0.379575
0.470903 0.383454
0.473579 0.387359
0.476254 0.391290
0.478930 0.395246
0.481605 0.399228
0.484281 0.403236
0.486957 0.407270
0.489632 0.411330
0.492308 0.415416
0.494983 0.419528
0.497659 0.423667
0.500334 0.427831
0.503010 0.432021
0.505686 0.436237
0.508361 0.440480
0.511037 0.444748
0.513712 0.449043
0.516388 0.453364
0.519064 0.457711
0.521739 0.462083
0.524415 0.466482
0.527090 0.470908
0.529766 0.475359
0.532441 0.479836
0.535117 0.484339
0.537793 0.488867
0.540468 0.493422
0.543144 0.498003
0.545819 0.502609
0.548495 0.507241
0.551171 0.511898
0.553846 0.516581
0.556522 0.521290
0.559197 0.526024
0.561873 0.530783
0.564548 0.535567
0.567224 0.540376
0.569900 0.545210
0.572575 0.550069
0.575251 0.554953
0.577926 0.559861
0.580602 0.564794
0.583278 0.569751
0.585953 0.574732
0.588629 0.579737
0.591304 0.584766
0.593980 0.589818
0.596656 0.594894
0.599331 0.599993
0.602007 0.605115
0.604682 0.610260
0.607358 0.615427
0.610033 0.620617
0.612709 0.625829
0.615385 0.631063
0.618060 0.636319
0.620736 0.641596
0.623411 0.646895
0.626087 0.652214
0.628763 0.657554
0.631438 0.662914
0.634114 0.668295
0.636789 0.673695
0.639465 0.679114
0.642140 0.684553
0.644816 0.690011
0.647492 0.695487
0.650167 0.700981
0.652843 0.706493
0.655518 0.712022
0.658194 0.717568
0.660870 0.723131
0.663545 0.728711
0.666221 0.734306
0.668896 0.739917
0.671572 0.745542
0.674247 0.751182
0.676923 0.756837
0.679599 0.762505
0.682274 0.768187
0.684950 0.773881
0.687625 0.779588
0.690301 0.785306
0.692977 0.791036
0.695652 0.796777
0.698328 0.802528
0.701003 0.808289
0.703679 0.814059
0.706355 0.819838
0.709030 0.825625
0.711706 0.831420
0.714381 0.837222
0.717057 0.843031
0.719732 0.848845
0.722408 0.854665
0.725084 0.860490
0.727759 0.866319
0.730435 0.872151
0.733110 0.877986
0.735786 0.883823
0.738462 0.889662
0.741137 0.895502
0.743813 0.901341
0.746488 0.907181
0.749164 0.913019
0.751839 0.918856
0.754515 0.924690
0.757191 0.930521
0.759866 0.936348
0.762542 0.942170
0.765217 0.947987
0.767893 0.953797
0.770569 0.959601
0.773244 0.965397
0.775920 0.971184
0.778595 0.976963
0.781271 0.982731
0.783946 0.988488
0.786622 0.994234
0.789298 0.999967
0.791973 1.005687
0.794649 1.011393
0.797324 1.017084
0.800000 1.022759
