# x1    P (MPa)
0.000000 0.000001
0.002676 0.000703
0.005351 0.001412
0.008027 0.002126
0.010702 0.002846
0.013378 0.003572
0.016054 0.004303
0.018729 0.005041
0.021405 0.005785
0.024080 0.006535
0.026756 0.007291
0.029431 0.008053
0.032107 0.008821
0.034783 0.009596
0.037458 0.010377
0.040134 0.011165
0.042809 0.011959
0.045485 0.012759
0.048161 0.013567
0.050836 0.014381
0.053512 0.015201
0.056187 0.016028
0.058863 0.016863
0.061538 0.017704
0.064214 0.018552
0.066890 0.019407
0.069565 0.020269
0.072241 0.021139
0.074916 0.022016
0.077592 0.022900
0.080268 0.023791
0.082943 0.024690
0.085619 0.025596
0.088294 0.026510
0.090970 0.027432
0.093645 0.028361
0.096321 0.029298
0.098997 0.030243
0.101672 0.031196
0.104348 0.032157
0.107023 0.033125
0.109699 0.034103
0.112375 0.035088
0.115050 0.036081
0.117726 0.037083
0.120401 0.038094
0.123077 0.039113
0.125753 0.040140
0.128428 0.041177
0.131104 0.042222
0.133779 0.043275
0.136455 0.044338
0.139130 0.045410
0.141806 0.046491
0.144482 0.047581
0.147157 0.048680
0.149833 0.049789
0.152508 0.050907
0.155184 0.052034
0.157860 0.053171
0.160535 0.054318
0.163211 0.055474
0.165886 0.056641
0.168562 0.057817
0.171237 0.059003
0.173913 0.060199
0.176589 0.061406
0.179264 0.062623
0.181940 0.063850
0.184615 0.065088
0.187291 0.066336
0.189967 0.067595
0.192642 0.068864
0.195318 0.070145
0.197993 0.071436
0.200669 0.072739
0.203344 0.074052
0.206020 0.075377
0.208696 0.076713
0.211371 0.078060
0.214047 0.079419
0.216722 0.080790
0.219398 0.082172
0.222074 0.083566
0.224749 0.084972
0.227425 0.086390
0.230100 0.087821
0.232776 0.089263
0.235452 0.090718
0.238127 0.092185
0.240803 0.093664
0.243478 0.095157
0.246154 0.096662
0.248829 0.098179
0.251505 0.099710
0.254181 0.101254
0.256856 0.102811
0.259532 0.104381
0.262207 0.105965
0.264883 0.107562
0.267559 0.109173
0.270234 0.110797
0.272910 0.112435
0.275585 0.114087
0.278261 0.115753
0.280936 0.117434
0.283612 0.119128
0.286288 0.120837
0.288963 0.122561
0.291639 0.124299
0.294314 0.126051
0.296990 0.127819
0.299666 0.129601
0.302341 0.131399
0.305017 0.133212
0.307692 0.135040
0.310368 0.136883
0.313043 0.138742
0.315719 0.140616
0.318395 0.142506
0.321070 0.144412
0.323746 0.146334
0.326421 0.148273
0.329097 0.150227
0.331773 0.152197
0.334448 0.154184
0.337124 0.156188
0.339799 0.158208
0.342475 0.160245
0.345151 0.162299
0.347826 0.164370
0.350502 0.166458
0.353177 0.168563
0.355853 0.170686
0.358528 0.172826
0.361204 0.174983
0.363880 0.177159
0.366555 0.179352
0.369231 0.181563
0.371906 0.183792
0.374582 0.186039
0.377258 0.188304
0.379933 0.190588
0.382609 0.192890
0.385284 0.195211
0.387960 0.197550
0.390635 0.199909
0.393311 0.202286
0.395987 0.204682
0.398662 0.207098
0.401338 0.209532
0.404013 0.211986
0.406689 0.214459
0.409365 0.216952
0.412040 0.219465
0.414716 0.221997
0.417391 0.224549
0.420067 0.227121
0.422742 0.229713
0.425418 0.232325
0.428094 0.234957
0.430769 0.237610
0.433445 0.240283
0.436120 0.242976
0.438796 0.245690
0.441472 0.248425
0.444147 0.251180
0.446823 0.253957
0.449498 0.256754
0.452174 0.259572
0.454849 0.262411
0.457525 0.265271
0.460201 0.268153
0.462876 0.271056
0.465552 0.273980
0.468227 0.276925
0.470903 0.279892
0.473579 0.282881
0.476254 0.285891
0.478930 0.288922
0.481605 0.291976
0.484281 0.295051
0.486957 0.298148
0.489632 0.301267
0.492308 0.304407
0.494983 0.307570
0.497659 0.310754
0.500334 0.313960
0.503010 0.317189
0.505686 0.320439
0.508361 0.323711
0.511037 0.327006
0.513712 0.330322
0.516388 0.333661
0.519064 0.337021
0.521739 0.340404
0.524415 0.343809
0.527090 0.347235
0.529766 0.350684
0.532441 0.354155
0.535117 0.357648
0.537793 0.361163
0.540468 0.364700
0.543144 0.368259
0.545819 0.371839
0.548495 0.375442
0.551171 0.379066
0.553846 0.382712
0.556522 0.386380
0.559197 0.390069
0.561873 0.393780
0.564548 0.397513
0.567224 0.401267
0.569900 0.405042
0.572575 0.408838
0.575251 0.412656
0.577926 0.416494
0.580602 0.420354
0.583278 0.424234
0.585953 0.428135
0.588629 0.432056
0.591304 0.435998
0.593980 0.439960
0.596656 0.443943
0.599331 0.447945
0.602007 0.451967
0.604682 0.456009
0.607358 0.460071
0.610033 0.464151
0.612709 0.468251
0.615385 0.472370
0.618060 0.476508
0.620736 0.480664
0.623411 0.484838
0.626087 0.489031
0.628763 0.493241
0.631438 0.497469
0.634114 0.501715
0.636789 0.505977
0.639465 0.510257
0.642140 0.514553
0.644816 0.518866
0.647492 0.523195
0.650167 0.527539
0.652843 0.531899
0.655518 0.536275
0.658194 0.540665
0.660870 0.545070
0.663545 0.549489
0.666221 0.553922
0.668896 0.558368
0.671572 0.562828
0.674247 0.567301
0.676923 0.571786
0.679599 0.576283
0.682274 0.580792
0.684950 0.585313
0.687625 0.589845
0.690301 0.594387
0.692977 0.598939
0.695652 0.603501
0.698328 0.608072
0.701003 0.612653
0.703679 0.617241
0.706355 0.621838
0.709030 0.626442
0.711706 0.631053
0.714381 0.635671
0.717057 0.640295
0.719732 0.644925
0.722408 0.649559
0.725084 0.654198
0.727759 0.658842
0.730435 0.663488
0.733110 0.668138
0.735786 0.672791
0.738462 0.677445
0.741137 0.682100
0.743813 0.686757
0.746488 0.691413
0.749164 0.696070
0.751839 0.700725
0.754515 0.705379
0.757191 0.710031
0.759866 0.714680
0.762542 0.719326
0.765217 0.723967
0.767893 0.728604
0.770569 0.733236
0.773244 0.737863
0.775920 0.742482
0.778595 0.747095
0.781271 0.751699
0.783946 0.756295
0.786622 0.760882
0.789298 0.765460
0.791973 0.770026
0.794649 0.774582
0.797324 0.779125
0.800000 0.783656
