# x1    P (MPa)
0.000000 0.000000
0.003015 0.001780
0.006030 0.003573
0.009045 0.005378
0.012060 0.007195
0.015075 0.009026
0.018090 0.010869
0.021106 0.012726
0.024121 0.014595
0.027136 0.016478
0.030151 0.018374
0.033166 0.020283
0.036181 0.022206
0.039196 0.024142
0.042211 0.026093
0.045226 0.028057
0.048241 0.030035
0.051256 0.032027
0.054271 0.034033
0.057286 0.036054
0.060302 0.038089
0.063317 0.040139
0.066332 0.042204
0.069347 0.044283
0.072362 0.046377
0.075377 0.048487
0.078392 0.050611
0.081407 0.052751
0.084422 0.054906
0.087437 0.057077
0.090452 0.059264
0.093467 0.061466
0.096482 0.063684
0.099497 0.065919
0.102513 0.068169
0.105528 0.070436
0.108543 0.072720
0.111558 0.075020
0.114573 0.077337
0.117588 0.079670
0.120603 0.082021
0.123618 0.084389
0.126633 0.086774
0.129648 0.089177
0.132663 0.091597
0.135678 0.094035
0.138693 0.096491
0.141709 0.098965
0.144724 0.101458
0.147739 0.103968
0.150754 0.106497
0.153769 0.109045
0.156784 0.111611
0.159799 0.114197
0.162814 0.116801
0.165829 0.119425
0.168844 0.122068
0.171859 0.124731
0.174874 0.127413
0.177889 0.130115
0.180905 0.132838
0.183920 0.135580
0.186935 0.138343
0.189950 0.141126
0.192965 0.143930
0.195980 0.146755
0.198995 0.149601
0.202010 0.152468
0.205025 0.155356
0.208040 0.158266
0.211055 0.161198
0.214070 0.164151
0.217085 0.167127
0.220101 0.170125
0.223116 0.173145
0.226131 0.176187
0.229146 0.179253
0.232161 0.182341
0.235176 0.185452
0.238191 0.188587
0.241206 0.191745
0.244221 0.194927
0.247236 0.198132
0.250251 0.201362
0.253266 0.204615
0.256281 0.207893
0.259296 0.211196
0.262312 0.214523
0.265327 0.217875
0.268342 0.221253
0.271357 0.224655
0.274372 0.228083
0.277387 0.231537
0.280402 0.235017
0.283417 0.238522
0.286432 0.242054
0.289447 0.245613
0.292462 0.249198
0.295477 0.252810
0.298492 0.256449
0.301508 0.260115
0.304523 0.263809
0.307538 0.267530
0.310553 0.271279
0.313568 0.275056
0.316583 0.278861
0.319598 0.282695
0.322613 0.286558
0.325628 0.290449
0.328643 0.294369
0.331658 0.298319
0.334673 0.302298
0.337688 0.306307
0.340704 0.310345
0.343719 0.314414
0.346734 0.318513
0.349749 0.322642
0.352764 0.326802
0.355779 0.330993
0.358794 0.335215
0.361809 0.339468
0.364824 0.343753
0.367839 0.348070
0.370854 0.352418
0.373869 0.356799
0.376884 0.361212
0.379899 0.365657
0.382915 0.370135
0.385930 0.374647
0.388945 0.379191
0.391960 0.383769
0.394975 0.388380
0.397990 0.393025
0.401005 0.397704
0.404020 0.402418
0.407035 0.407165
0.410050 0.411948
0.413065 0.416765
0.416080 0.421617
0.419095 0.426505
0.422111 0.431427
0.425126 0.436386
0.428141 0.441380
0.431156 0.446410
0.434171 0.451477
0.437186 0.456580
0.440201 0.461719
0.443216 0.466896
0.446231 0.472109
0.449246 0.477360
0.452261 0.482648
0.455276 0.487973
0.458291 0.493337
0.461307 0.498738
0.464322 0.504178
0.467337 0.509655
0.470352 0.515172
0.473367 0.520727
0.476382 0.526320
0.479397 0.531953
0.482412 0.537625
0.485427 0.543337
0.488442 0.549088
0.491457 0.554879
0.494472 0.560710
0.497487 0.566580
0.500503 0.572491
0.503518 0.578443
0.506533 0.584434
0.509548 0.590467
0.512563 0.596540
0.515578 0.602655
0.518593 0.608810
0.521608 0.615007
0.524623 0.621245
0.527638 0.627524
0.530653 0.633846
0.533668 0.640209
0.536683 0.646613
0.539698 0.653060
0.542714 0.659549
0.545729 0.666080
0.548744 0.672654
0.551759 0.679270
0.554774 0.685928
0.557789 0.692629
0.560804 0.699373
0.563819 0.706159
0.566834 0.712988
0.569849 0.719860
0.572864 0.726775
0.575879 0.733733
0.578894 0.740734
0.581910 0.747778
0.584925 0.754866
0.587940 0.761996
0.590955 0.769170
0.593970 0.776387
0.596985 0.783647
0.600000 0.790950
