# x1    P (MPa)
0.000000 0.000000
0.003015 0.003451
0.006030 0.006921
0.009045 0.010411
0.012060 0.013921
0.015075 0.017451
0.018090 0.021001
0.021106 0.024571
0.024121 0.028161
0.027136 0.031771
0.030151 0.035402
0.033166 0.039053
0.036181 0.042725
0.039196 0.046417
0.042211 0.050130
0.045226 0.053864
0.048241 0.057619
0.051256 0.061394
0.054271 0.065191
0.057286 0.069009
0.060302 0.072848
0.063317 0.076708
0.066332 0.080589
0.069347 0.084492
0.072362 0.088416
0.075377 0.092362
0.078392 0.096330
0.081407 0.100319
0.084422 0.104330
0.087437 0.108363
0.090452 0.112418
0.093467 0.116495
0.096482 0.120594
0.099497 0.124715
0.102513 0.128859
0.105528 0.133024
0.108543 0.137212
0.111558 0.141423
0.114573 0.145656
0.117588 0.149912
0.120603 0.154190
0.123618 0.158491
0.126633 0.162814
0.129648 0.167161
0.132663 0.171530
0.135678 0.175923
0.138693 0.180338
0.141709 0.184777
0.144724 0.189238
0.147739 0.193723
0.150754 0.198231
0.153769 0.202762
0.156784 0.207317
0.159799 0.211895
0.162814 0.216497
0.165829 0.221122
0.168844 0.225771
0.171859 0.230443
0.174874 0.235139
0.177889 0.239859
0.180905 0.244602
0.183920 0.249370
0.186935 0.254161
0.189950 0.258976
0.192965 0.263815
0.195980 0.268678
0.198995 0.273565
0.202010 0.278476
0.205025 0.283411
0.208040 0.288370
0.211055 0.293353
0.214070 0.298361
0.217085 0.303392
0.220101 0.308448
0.223116 0.313528
0.226131 0.318633
0.229146 0.323761
0.232161 0.328914
0.235176 0.334092
0.238191 0.339293
0.241206 0.344519
0.244221 0.349770
0.247236 0.355045
0.250251 0.360344
0.253266 0.365667
0.256281 0.371015
0.259296 0.376387
0.262312 0.381784
0.265327 0.387205
0.268342 0.392651
0.271357 0.398120
0.274372 0.403615
0.277387 0.409133
0.280402 0.414676
0.283417 0.420244
0.286432 0.425835
0.289447 0.431451
0.292462 0.437091
0.295477 0.442756
0.298492 0.448444
0.301508 0.454157
0.304523 0.459894
0.307538 0.465655
0.310553 0.471441
0.313568 0.477250
0.316583 0.483083
0.319598 0.488940
0.322613 0.494822
0.325628 0.500727
0.328643 0.506656
0.331658 0.512608
0.334673 0.518585
0.337688 0.524585
0.340704 0.530608
0.343719 0.536655
0.346734 0.542726
0.349749 0.548820
0.352764 0.554937
0.355779 0.561077
0.358794 0.567241
0.361809 0.573427
0.364824 0.579637
0.367839 0.585869
0.370854 0.592125
0.373869 0.598403
0.376884 0.604703
0.379899 0.611026
0.382915 0.617371
0.385930 0.623739
0.388945 0.630129
0.391960 0.636540
0.394975 0.642974
0.397990 0.649429
0.401005 0.655906
0.404020 0.662405
0.407035 0.668925
0.410050 0.675466
0.413065 0.682029
0.416080 0.688612
0.419095 0.695216
0.422111 0.701841
0.425126 0.708486
0.428141 0.715152
0.431156 0.721838
0.434171 0.728544
0.437186 0.735269
0.440201 0.742015
0.443216 0.748780
0.446231 0.755564
0.449246 0.762367
0.452261 0.769190
0.455276 0.776031
0.458291 0.782890
0.461307 0.789768
0.464322 0.796664
0.467337 0.803578
0.470352 0.810510
0.473367 0.817459
0.476382 0.824426
0.479397 0.831409
0.482412 0.838410
0.485427 0.845427
0.488442 0.852460
0.491457 0.859510
0.494472 0.866575
0.497487 0.873656
0.500503 0.880752
0.503518 0.887864
0.506533 0.894990
0.509548 0.902131
0.512563 0.909286
0.515578 0.916456
0.518593 0.923638
0.521608 0.930835
0.524623 0.938045
0.527638 0.945267
0.530653 0.952502
0.533668 0.959750
0.536683 0.967009
0.539698 0.974280
0.542714 0.981563
0.545729 0.988856
0.548744 0.996160
0.551759 1.003475
0.554774 1.010800
0.557789 1.018134
0.560804 1.025478
0.563819 1.032831
0.566834 1.040193
0.569849 1.047563
0.572864 1.054941
0.575879 1.062327
0.578894 1.069720
0.581910 1.077120
0.584925 1.084526
0.587940 1.091939
0.590955 1.099358
0.593970 1.106781
0.596985 1.114210
0.600000 1.121644
