# x1    P (MPa)
0.000000 0.000001
0.003015 0.003092
0.006030 0.006204
0.009045 0.009334
0.012060 0.012485
0.015075 0.015655
0.018090 0.018845
0.021106 0.022055
0.024121 0.025285
0.027136 0.028536
0.030151 0.031807
0.033166 0.035098
0.036181 0.038411
0.039196 0.041744
0.042211 0.045098
0.045226 0.048474
0.048241 0.051870
0.051256 0.055288
0.054271 0.058728
0.057286 0.062189
0.060302 0.065673
0.063317 0.069178
0.066332 0.072705
0.069347 0.076255
0.072362 0.079827
0.075377 0.083422
0.078392 0.087040
0.081407 0.090680
0.084422 0.094344
0.087437 0.098030
0.090452 0.101740
0.093467 0.105474
0.096482 0.109231
0.099497 0.113012
0.102513 0.116817
0.105528 0.120647
0.108543 0.124500
0.111558 0.128378
0.114573 0.132280
0.117588 0.136208
0.120603 0.140160
0.123618 0.144137
0.126633 0.148139
0.129648 0.152167
0.132663 0.156221
0.135678 0.160300
0.138693 0.164405
0.141709 0.168535
0.144724 0.172693
0.147739 0.176876
0.150754 0.181086
0.153769 0.185323
0.156784 0.189586
0.159799 0.193877
0.162814 0.198195
0.165829 0.202540
0.168844 0.206912
0.171859 0.211312
0.174874 0.215740
0.177889 0.220197
0.180905 0.224681
0.183920 0.229193
0.186935 0.233734
0.189950 0.238304
0.192965 0.242903
0.195980 0.247530
0.198995 0.252187
0.202010 0.256873
0.205025 0.261589
0.208040 0.266334
0.211055 0.271109
0.214070 0.275914
0.217085 0.280750
0.220101 0.285616
0.223116 0.290512
0.226131 0.295439
0.229146 0.300397
0.232161 0.305385
0.235176 0.310405
0.238191 0.315457
0.241206 0.320540
0.244221 0.325655
0.247236 0.330801
0.250251 0.335980
0.253266 0.341191
0.256281 0.346434
0.259296 0.351710
0.262312 0.357018
0.265327 0.362360
0.268342 0.367734
0.271357 0.373142
0.274372 0.378583
0.277387 0.384057
0.280402 0.389566
0.283417 0.395108
0.286432 0.400684
0.289447 0.406295
0.292462 0.411940
0.295477 0.417619
0.298492 0.423333
0.301508 0.429082
0.304523 0.434866
0.307538 0.440685
0.310553 0.446540
0.313568 0.452430
0.316583 0.458355
0.319598 0.464317
0.322613 0.470314
0.325628 0.476347
0.328643 0.482417
0.331658 0.488523
0.334673 0.494666
0.337688 0.500845
0.340704 0.507062
0.343719 0.513315
0.346734 0.519605
0.349749 0.525933
0.352764 0.532298
0.355779 0.538701
0.358794 0.545141
0.361809 0.551619
0.364824 0.558135
0.367839 0.564689
0.370854 0.571282
0.373869 0.577912
0.376884 0.584582
0.379899 0.591289
0.382915 0.598036
0.385930 0.604821
0.388945 0.611646
0.391960 0.618509
0.394975 0.625412
0.397990 0.632354
0.401005 0.639335
0.404020 0.646356
0.407035 0.653416
0.410050 0.660516
0.413065 0.667656
0.416080 0.674835
0.419095 0.682055
0.422111 0.689315
0.425126 0.696615
0.428141 0.703955
0.431156 0.711335
0.434171 0.718756
0.437186 0.726217
0.440201 0.733719
0.443216 0.741262
0.446231 0.748845
0.449246 0.756468
0.452261 0.764133
0.455276 0.771838
0.458291 0.779584
0.461307 0.787371
0.464322 0.795198
0.467337 0.803067
0.470352 0.810977
0.473367 0.818927
0.476382 0.826919
0.479397 0.834952
0.482412 0.843025
0.485427 0.851140
0.488442 0.859296
0.491457 0.867493
0.494472 0.875731
0.497487 0.884009
0.500503 0.892329
0.503518 0.900690
0.506533 0.909091
0.509548 0.917534
0.512563 0.926017
0.515578 0.934541
0.518593 0.943106
0.521608 0.951711
0.524623 0.960357
0.527638 0.969043
0.530653 0.977770
0.533668 0.986538
0.536683 0.995345
0.539698 1.004193
0.542714 1.013080
0.545729 1.022008
0.548744 1.030975
0.551759 1.039982
0.554774 1.049029
0.557789 1.058115
0.560804 1.067240
0.563819 1.076404
0.566834 1.085608
0.569849 1.094850
0.572864 1.104130
0.575879 1.113449
0.578894 1.122806
0.581910 1.132201
0.584925 1.141634
0.587940 1.151104
0.590955 1.160612
0.593970 1.170157
0.596985 1.179738
0.600000 1.189356
