# x1    P (MPa)
0.000000 0.000000
0.003015 0.002457
0.006030 0.004930
0.009045 0.007419
0.012060 0.009925
0.015075 0.012446
0.018090 0.014985
0.021106 0.017540
0.024121 0.020111
0.027136 0.022700
0.030151 0.025306
0.033166 0.027929
0.036181 0.030569
0.039196 0.033227
0.042211 0.035903
0.045226 0.038596
0.048241 0.041307
0.051256 0.044036
0.054271 0.046784
0.057286 0.049549
0.060302 0.052334
0.063317 0.055136
0.066332 0.057958
0.069347 0.060798
0.072362 0.063658
0.075377 0.066537
0.078392 0.069435
0.081407 0.072353
0.084422 0.075290
0.087437 0.078247
0.090452 0.081224
0.093467 0.084222
0.096482 0.087239
0.099497 0.090278
0.102513 0.093336
0.105528 0.096416
0.108543 0.099517
0.111558 0.102638
0.114573 0.105781
0.117588 0.108946
0.120603 0.112132
0.123618 0.115339
0.126633 0.118569
0.129648 0.121821
0.132663 0.125095
0.135678 0.128392
0.138693 0.131712
0.141709 0.135054
0.144724 0.138419
0.147739 0.141808
0.150754 0.145220
0.153769 0.148655
0.156784 0.152114
0.159799 0.155597
0.162814 0.159104
0.165829 0.162636
0.168844 0.166192
0.171859 0.169773
0.174874 0.173378
0.177889 0.177009
0.180905 0.180665
0.183920 0.184346
0.186935 0.188053
0.189950 0.191786
0.192965 0.195545
0.195980 0.199330
0.198995 0.203142
0.202010 0.206980
0.205025 0.210845
0.208040 0.214737
0.211055 0.218656
0.214070 0.222603
0.217085 0.226578
0.220101 0.230580
0.223116 0.234611
0.226131 0.238670
0.229146 0.242757
0.232161 0.246873
0.235176 0.251018
0.238191 0.255192
0.241206 0.259396
0.244221 0.263629
0.247236 0.267892
0.250251 0.272185
0.253266 0.276508
0.256281 0.280862
0.259296 0.285246
0.262312 0.289661
0.265327 0.294108
0.268342 0.298586
0.271357 0.303095
0.274372 0.307637
0.277387 0.312210
0.280402 0.316816
0.283417 0.321454
0.286432 0.326125
0.289447 0.330829
0.292462 0.335566
0.295477 0.340337
0.298492 0.345142
0.301508 0.349980
0.304523 0.354853
0.307538 0.359760
0.310553 0.364701
0.313568 0.369678
0.316583 0.374689
0.319598 0.379737
0.322613 0.384819
0.325628 0.389938
0.328643 0.395093
0.331658 0.400284
0.334673 0.405511
0.337688 0.410776
0.340704 0.416077
0.343719 0.421416
0.346734 0.426793
0.349749 0.432207
0.352764 0.437660
0.355779 0.443151
0.358794 0.448680
0.361809 0.454248
0.364824 0.459855
0.367839 0.465502
0.370854 0.471188
0.373869 0.476914
0.376884 0.482681
0.379899 0.488487
0.382915 0.494334
0.385930 0.500222
0.388945 0.506151
0.391960 0.512121
0.394975 0.518133
0.397990 0.524187
0.401005 0.530282
0.404020 0.536420
0.407035 0.542601
0.410050 0.548824
0.413065 0.555091
0.416080 0.561401
0.419095 0.567754
0.422111 0.574151
0.425126 0.580592
0.428141 0.587077
0.431156 0.593607
0.434171 0.600182
0.437186 0.606802
0.440201 0.613467
0.443216 0.620177
0.446231 0.626933
0.449246 0.633735
0.452261 0.640583
0.455276 0.647478
0.458291 0.654419
0.461307 0.661407
0.464322 0.668442
0.467337 0.675524
0.470352 0.682654
0.473367 0.689832
0.476382 0.697057
0.479397 0.704331
0.482412 0.711653
0.485427 0.719024
0.488442 0.726443
0.491457 0.733912
0.494472 0.741429
0.497487 0.748996
0.500503 0.756613
0.503518 0.764279
0.506533 0.771996
0.509548 0.779762
0.512563 0.787579
0.515578 0.795446
0.518593 0.803364
0.521608 0.811333
0.524623 0.819353
0.527638 0.827424
0.530653 0.835546
0.533668 0.843720
0.536683 0.851945
0.539698 0.860222
0.542714 0.868551
0.545729 0.876932
0.548744 0.885365
0.551759 0.893850
0.554774 0.902388
0.557789 0.910978
0.560804 0.919621
0.563819 0.928316
0.566834 0.937064
0.569849 0.945865
0.572864 0.954719
0.575879 0.963626
0.578894 0.972587
0.581910 0.981600
0.584925 0.990666
0.587940 0.999786
0.590955 1.008958
0.593970 1.018184
0.596985 1.027464
0.600000 1.036796
